freq,psd_x,psd_y,psd_z,psd_xyz
0.0,2.876e+02,5.814e+00,6.642e+00,3.000e+02
1.6,1.927e+02,1.713e+01,2.429e+01,2.342e+02
3.2,7.231e+01,1.855e+01,2.667e+01,1.175e+02
4.8,4.617e+02,1.657e+01,2.705e+01,5.053e+02
6.4,1.331e+03,1.580e+01,2.735e+01,1.374e+03
8.0,2.090e+03,1.782e+01,2.822e+01,2.136e+03
9.6,3.007e+03,1.824e+01,2.942e+01,3.055e+03
11.2,4.251e+03,2.037e+01,2.785e+01,4.299e+03
12.9,5.810e+03,2.144e+01,2.909e+01,5.860e+03
14.5,7.768e+03,2.118e+01,2.942e+01,7.819e+03
16.1,7.826e+03,2.308e+01,3.298e+01,7.882e+03
17.7,7.205e+03,2.248e+01,3.510e+01,7.263e+03
19.3,8.842e+03,2.317e+01,4.002e+01,8.905e+03
20.9,1.068e+04,2.407e+01,4.235e+01,1.075e+04
22.5,1.250e+04,1.975e+01,4.648e+01,1.257e+04
24.1,1.454e+04,1.969e+01,5.162e+01,1.461e+04
25.7,1.675e+04,2.174e+01,5.662e+01,1.683e+04
27.3,1.841e+04,2.246e+01,7.909e+01,1.851e+04
28.9,2.113e+04,2.300e+01,8.465e+01,2.124e+04
30.5,2.462e+04,2.250e+01,8.785e+01,2.473e+04
32.1,2.792e+04,2.104e+01,7.753e+01,2.802e+04
33.7,3.211e+04,2.110e+01,5.525e+01,3.218e+04
35.3,3.729e+04,2.223e+01,5.466e+01,3.737e+04
37.0,4.386e+04,2.476e+01,7.489e+01,4.396e+04
38.6,5.279e+04,3.477e+01,6.694e+01,5.289e+04
40.2,6.281e+04,4.493e+01,5.306e+01,6.291e+04
41.8,7.410e+04,5.844e+01,5.023e+01,7.421e+04
43.4,7.801e+04,8.341e+01,1.448e+02,7.824e+04
45.0,7.747e+04,9.087e+01,3.520e+02,7.792e+04
46.6,9.187e+04,7.665e+01,6.333e+02,9.258e+04
48.2,1.164e+05,1.281e+02,1.195e+03,1.177e+05
49.8,1.437e+05,3.074e+02,2.032e+03,1.461e+05
51.4,1.902e+05,7.159e+02,2.828e+03,1.937e+05
53.0,2.672e+05,1.973e+03,4.517e+03,2.737e+05
54.6,3.708e+05,4.292e+03,8.168e+03,3.833e+05
56.2,5.025e+05,6.265e+03,1.110e+04,5.198e+05
57.8,7.128e+05,8.929e+03,1.323e+04,7.349e+05
59.4,1.046e+06,1.414e+04,1.546e+04,1.075e+06
61.0,1.172e+06,1.369e+04,1.116e+04,1.197e+06
62.7,1.110e+06,6.782e+03,4.579e+03,1.121e+06
64.3,9.280e+05,2.263e+03,2.059e+03,9.323e+05
65.9,6.235e+05,3.165e+03,2.663e+03,6.294e+05
67.5,3.702e+05,8.341e+03,4.337e+03,3.829e+05
69.1,2.217e+05,1.217e+04,4.725e+03,2.386e+05
70.7,1.524e+05,1.274e+04,3.812e+03,1.690e+05
72.3,1.116e+05,9.553e+03,2.452e+03,1.237e+05
73.9,8.148e+04,5.069e+03,1.236e+03,8.778e+04
75.5,6.172e+04,2.084e+03,4.893e+02,6.429e+04
77.1,4.680e+04,8.590e+02,1.911e+02,4.785e+04
78.7,3.355e+04,7.840e+02,1.892e+02,3.452e+04
80.3,2.351e+04,1.061e+03,3.876e+02,2.496e+04
81.9,1.695e+04,1.183e+03,7.035e+02,1.884e+04
83.5,1.667e+04,9.536e+02,9.263e+02,1.855e+04
85.1,2.806e+04,8.449e+02,8.985e+02,2.980e+04
86.8,5.638e+04,1.826e+03,7.278e+02,5.893e+04
88.4,9.689e+04,3.416e+03,5.788e+02,1.009e+05
90.0,1.328e+05,4.266e+03,6.038e+02,1.377e+05
91.6,1.424e+05,4.145e+03,7.951e+02,1.473e+05
93.2,1.315e+05,3.348e+03,8.804e+02,1.358e+05
94.8,1.115e+05,3.466e+03,5.995e+02,1.155e+05
96.4,9.139e+04,5.188e+03,3.855e+02,9.696e+04
98.0,7.398e+04,8.498e+03,3.169e+02,8.279e+04
99.6,5.544e+04,1.111e+04,3.427e+02,6.689e+04
101.2,4.057e+04,6.979e+03,4.146e+02,4.797e+04
102.8,3.169e+04,3.933e+03,4.678e+02,3.609e+04
104.4,2.445e+04,2.744e+03,4.624e+02,2.766e+04
106.0,1.925e+04,1.918e+03,3.642e+02,2.153e+04
107.6,1.708e+04,1.403e+03,2.685e+02,1.875e+04
109.2,1.507e+04,1.147e+03,2.363e+02,1.646e+04
110.9,1.426e+04,1.013e+03,2.305e+02,1.551e+04
112.5,1.386e+04,1.195e+03,2.519e+02,1.531e+04
114.1,1.401e+04,1.914e+03,2.962e+02,1.622e+04
115.7,1.425e+04,3.032e+03,3.492e+02,1.763e+04
117.3,1.388e+04,2.472e+03,3.387e+02,1.669e+04
118.9,1.413e+04,2.066e+03,4.479e+02,1.664e+04
120.5,1.384e+04,1.897e+03,6.530e+02,1.639e+04
122.1,1.239e+04,1.833e+03,9.641e+02,1.519e+04
123.7,1.055e+04,2.621e+03,1.211e+03,1.439e+04
125.3,8.919e+03,4.284e+03,1.256e+03,1.446e+04
126.9,8.041e+03,5.281e+03,1.069e+03,1.439e+04
128.5,7.265e+03,5.127e+03,8.046e+02,1.320e+04
130.1,6.240e+03,4.459e+03,5.923e+02,1.129e+04
131.7,4.557e+03,3.065e+03,4.702e+02,8.092e+03
133.3,2.042e+03,1.269e+03,2.694e+02,3.581e+03
135.0,1.125e+03,4.066e+02,1.229e+02,1.654e+03
136.6,1.203e+03,2.997e+02,7.741e+01,1.580e+03
138.2,1.139e+03,2.793e+02,5.781e+01,1.476e+03
139.8,9.935e+02,2.754e+02,4.714e+01,1.316e+03
141.4,8.590e+02,2.668e+02,3.660e+01,1.162e+03
143.0,7.217e+02,2.116e+02,3.017e+01,9.635e+02
144.6,6.273e+02,1.767e+02,2.954e+01,8.336e+02
146.2,5.498e+02,1.578e+02,2.925e+01,7.369e+02
147.8,4.987e+02,1.590e+02,2.760e+01,6.853e+02
149.4,4.910e+02,1.554e+02,2.812e+01,6.746e+02
151.0,5.212e+02,1.309e+02,2.895e+01,6.811e+02
152.6,5.948e+02,1.705e+02,2.904e+01,7.943e+02
154.2,6.760e+02,2.229e+02,2.842e+01,9.273e+02
155.8,7.240e+02,2.756e+02,2.986e+01,1.029e+03
157.4,7.424e+02,2.969e+02,3.186e+01,1.071e+03
159.0,8.511e+02,2.868e+02,3.345e+01,1.171e+03
160.7,9.861e+02,3.199e+02,2.848e+01,1.334e+03
162.3,9.641e+02,3.533e+02,2.661e+01,1.344e+03
163.9,9.851e+02,4.320e+02,2.832e+01,1.445e+03
165.5,1.250e+03,5.322e+02,2.812e+01,1.810e+03
167.1,1.822e+03,6.331e+02,2.803e+01,2.483e+03
168.7,2.703e+03,7.466e+02,3.061e+01,3.481e+03
170.3,4.223e+03,7.635e+02,3.599e+01,5.023e+03
171.9,6.085e+03,8.090e+02,3.880e+01,6.933e+03
173.5,7.842e+03,8.912e+02,5.384e+01,8.787e+03
175.1,9.457e+03,9.391e+02,5.721e+01,1.045e+04
176.7,1.114e+04,1.108e+03,6.261e+01,1.231e+04
178.3,1.257e+04,1.197e+03,8.391e+01,1.386e+04
179.9,1.489e+04,1.195e+03,8.913e+01,1.617e+04
181.5,1.733e+04,1.041e+03,7.778e+01,1.845e+04
183.1,1.919e+04,8.859e+02,6.857e+01,2.015e+04
184.8,1.938e+04,7.755e+02,6.138e+01,2.022e+04
186.4,2.051e+04,6.663e+02,5.481e+01,2.123e+04
188.0,2.345e+04,6.150e+02,5.397e+01,2.412e+04
189.6,2.598e+04,5.949e+02,5.524e+01,2.663e+04
191.2,2.556e+04,6.058e+02,5.462e+01,2.622e+04
192.8,2.503e+04,6.343e+02,5.450e+01,2.572e+04
194.4,2.619e+04,7.354e+02,5.165e+01,2.698e+04
196.0,2.275e+04,7.131e+02,4.774e+01,2.351e+04
197.6,1.877e+04,6.224e+02,5.485e+01,1.945e+04
199.2,1.851e+04,5.187e+02,5.976e+01,1.909e+04
