freq,psd_x,psd_y,psd_z,psd_xyz
0.0,2.673e+02,6.681e+00,7.213e+00,2.812e+02
1.6,1.977e+02,1.838e+01,2.438e+01,2.405e+02
3.2,7.837e+01,1.949e+01,2.670e+01,1.246e+02
4.8,4.532e+02,1.908e+01,2.424e+01,4.965e+02
6.4,1.323e+03,1.782e+01,2.465e+01,1.365e+03
8.0,2.056e+03,1.950e+01,2.700e+01,2.103e+03
9.6,2.954e+03,2.035e+01,2.735e+01,3.002e+03
11.2,4.227e+03,2.015e+01,2.844e+01,4.275e+03
12.9,5.800e+03,2.024e+01,3.002e+01,5.851e+03
14.5,7.763e+03,2.368e+01,2.919e+01,7.815e+03
16.1,7.892e+03,4.048e+01,3.459e+01,7.967e+03
17.7,7.258e+03,7.279e+01,3.617e+01,7.367e+03
19.3,8.885e+03,7.624e+01,3.821e+01,8.999e+03
20.9,1.072e+04,5.485e+01,4.074e+01,1.082e+04
22.5,1.250e+04,3.760e+01,4.329e+01,1.259e+04
24.1,1.459e+04,5.201e+01,4.344e+01,1.469e+04
25.7,1.673e+04,7.177e+01,4.822e+01,1.685e+04
27.3,1.825e+04,6.455e+01,6.178e+01,1.838e+04
28.9,2.086e+04,5.292e+01,6.898e+01,2.098e+04
30.5,2.445e+04,5.742e+01,7.787e+01,2.458e+04
32.1,2.785e+04,7.197e+01,6.920e+01,2.799e+04
33.7,3.178e+04,9.480e+01,4.684e+01,3.192e+04
35.3,3.683e+04,1.190e+02,4.416e+01,3.700e+04
37.0,4.353e+04,1.546e+02,6.792e+01,4.375e+04
38.6,5.206e+04,2.565e+02,7.712e+01,5.239e+04
40.2,6.178e+04,4.164e+02,5.529e+01,6.225e+04
41.8,7.357e+04,4.796e+02,4.680e+01,7.410e+04
43.4,7.833e+04,4.156e+02,9.101e+01,7.884e+04
45.0,7.809e+04,3.727e+02,2.122e+02,7.867e+04
46.6,9.124e+04,5.593e+02,4.268e+02,9.222e+04
48.2,1.145e+05,1.199e+03,7.800e+02,1.165e+05
49.8,1.399e+05,1.703e+03,1.180e+03,1.428e+05
51.4,1.858e+05,1.820e+03,1.507e+03,1.892e+05
53.0,2.666e+05,1.525e+03,2.896e+03,2.710e+05
54.6,3.722e+05,1.218e+03,6.486e+03,3.799e+05
56.2,5.010e+05,2.990e+03,1.043e+04,5.144e+05
57.8,7.025e+05,7.019e+03,1.191e+04,7.214e+05
59.4,1.070e+06,1.516e+04,1.431e+04,1.099e+06
61.1,1.213e+06,2.649e+04,1.786e+04,1.257e+06
62.7,1.088e+06,2.722e+04,1.723e+04,1.133e+06
64.3,9.073e+05,1.303e+04,8.929e+03,9.293e+05
65.9,6.637e+05,4.757e+03,4.738e+03,6.732e+05
67.5,4.279e+05,3.411e+03,2.778e+03,4.341e+05
69.1,2.498e+05,6.507e+03,1.844e+03,2.582e+05
70.7,1.586e+05,8.659e+03,1.647e+03,1.689e+05
72.3,1.119e+05,6.923e+03,1.255e+03,1.201e+05
73.9,8.214e+04,3.448e+03,6.980e+02,8.629e+04
75.5,6.231e+04,1.168e+03,4.089e+02,6.389e+04
77.1,4.553e+04,5.894e+02,4.226e+02,4.655e+04
78.7,3.151e+04,8.569e+02,4.776e+02,3.284e+04
80.3,2.104e+04,1.524e+03,5.940e+02,2.316e+04
81.9,1.336e+04,2.233e+03,7.603e+02,1.635e+04
83.5,9.865e+03,2.558e+03,8.865e+02,1.331e+04
85.2,1.262e+04,2.653e+03,9.856e+02,1.626e+04
86.8,2.828e+04,3.048e+03,1.213e+03,3.254e+04
88.4,6.253e+04,4.205e+03,1.628e+03,6.837e+04
90.0,9.963e+04,5.031e+03,1.860e+03,1.065e+05
91.6,1.182e+05,4.219e+03,1.887e+03,1.243e+05
93.2,1.175e+05,2.717e+03,1.852e+03,1.221e+05
94.8,1.087e+05,1.176e+03,1.517e+03,1.114e+05
96.4,9.288e+04,1.050e+03,1.065e+03,9.499e+04
98.0,7.538e+04,2.741e+03,5.249e+02,7.865e+04
99.6,5.537e+04,5.041e+03,1.575e+02,6.057e+04
101.2,3.884e+04,3.251e+03,1.466e+02,4.223e+04
102.8,3.006e+04,2.139e+03,3.216e+02,3.252e+04
104.4,2.332e+04,1.450e+03,4.354e+02,2.521e+04
106.0,1.824e+04,9.034e+02,4.194e+02,1.956e+04
107.7,1.652e+04,7.061e+02,3.798e+02,1.761e+04
109.3,1.571e+04,7.197e+02,3.717e+02,1.680e+04
110.9,1.490e+04,8.220e+02,4.291e+02,1.615e+04
112.5,1.387e+04,1.086e+03,5.103e+02,1.546e+04
114.1,1.471e+04,1.996e+03,5.178e+02,1.722e+04
115.7,1.459e+04,2.809e+03,4.594e+02,1.786e+04
117.3,1.481e+04,2.942e+03,3.821e+02,1.813e+04
118.9,1.618e+04,2.878e+03,3.818e+02,1.944e+04
120.5,1.521e+04,2.417e+03,4.187e+02,1.804e+04
122.1,1.389e+04,2.283e+03,5.527e+02,1.673e+04
123.7,1.255e+04,2.815e+03,6.932e+02,1.606e+04
125.3,1.104e+04,4.150e+03,7.538e+02,1.595e+04
126.9,9.880e+03,5.769e+03,6.898e+02,1.634e+04
128.5,8.678e+03,6.401e+03,5.026e+02,1.558e+04
130.1,7.240e+03,5.898e+03,3.354e+02,1.347e+04
131.8,5.211e+03,4.363e+03,1.921e+02,9.767e+03
133.4,1.901e+03,1.661e+03,1.072e+02,3.669e+03
135.0,4.493e+02,3.530e+02,8.274e+01,8.850e+02
136.6,3.943e+02,2.530e+02,7.706e+01,7.244e+02
138.2,3.968e+02,2.058e+02,6.628e+01,6.688e+02
139.8,4.012e+02,2.403e+02,5.205e+01,6.935e+02
141.4,3.887e+02,2.372e+02,4.317e+01,6.691e+02
143.0,3.545e+02,2.076e+02,3.834e+01,6.005e+02
144.6,3.347e+02,1.863e+02,3.738e+01,5.584e+02
146.2,2.926e+02,1.947e+02,3.747e+01,5.248e+02
147.8,2.485e+02,2.020e+02,3.617e+01,4.867e+02
149.4,2.484e+02,1.985e+02,3.358e+01,4.804e+02
151.0,2.771e+02,1.826e+02,3.042e+01,4.902e+02
152.6,3.045e+02,2.192e+02,2.868e+01,5.524e+02
154.2,3.023e+02,2.360e+02,3.048e+01,5.689e+02
155.9,3.183e+02,3.060e+02,3.287e+01,6.572e+02
157.5,3.571e+02,3.536e+02,3.246e+01,7.432e+02
159.1,4.863e+02,3.557e+02,3.260e+01,8.746e+02
160.7,6.735e+02,3.905e+02,3.143e+01,1.095e+03
162.3,7.273e+02,3.825e+02,2.885e+01,1.139e+03
163.9,6.884e+02,4.046e+02,2.890e+01,1.122e+03
165.5,6.968e+02,4.698e+02,2.837e+01,1.195e+03
167.1,8.520e+02,5.499e+02,2.791e+01,1.430e+03
168.7,1.196e+03,6.422e+02,2.916e+01,1.867e+03
170.3,1.750e+03,6.727e+02,3.003e+01,2.453e+03
171.9,2.619e+03,7.377e+02,3.568e+01,3.392e+03
173.5,3.750e+03,8.830e+02,4.046e+01,4.673e+03
175.1,5.028e+03,9.483e+02,4.759e+01,6.024e+03
176.7,5.957e+03,1.074e+03,5.307e+01,7.084e+03
178.3,6.971e+03,1.106e+03,5.761e+01,8.135e+03
180.0,8.328e+03,9.879e+02,6.453e+01,9.381e+03
181.6,9.748e+03,8.247e+02,5.880e+01,1.063e+04
183.2,1.036e+04,7.107e+02,5.206e+01,1.113e+04
184.8,9.872e+03,6.181e+02,4.577e+01,1.054e+04
186.4,9.964e+03,5.550e+02,4.020e+01,1.056e+04
188.0,1.174e+04,5.137e+02,3.770e+01,1.229e+04
189.6,1.435e+04,5.296e+02,3.329e+01,1.491e+04
191.2,1.642e+04,5.428e+02,3.367e+01,1.700e+04
192.8,1.677e+04,5.206e+02,3.515e+01,1.733e+04
194.4,1.732e+04,5.257e+02,3.526e+01,1.788e+04
196.0,1.421e+04,5.263e+02,3.531e+01,1.477e+04
197.6,1.056e+04,5.455e+02,3.627e+01,1.114e+04
199.2,9.968e+03,5.280e+02,4.109e+01,1.054e+04
